#    k         chi       stddev       win
  0.0000000      -0.52456567E-01   0.55810669        0.0000000
  0.50000000E-01  -0.53273895E-01   0.53357737        0.0000000
  0.10000000      -0.54091223E-01   0.50904805        0.0000000
  0.15000000      -0.54908550E-01   0.48451873        0.0000000
  0.20000000      -0.55725878E-01   0.45998941        0.0000000
  0.25000000      -0.56543206E-01   0.43546009        0.0000000
  0.30000000      -0.57360534E-01   0.41093077        0.0000000
  0.35000000      -0.58177862E-01   0.38640145        0.0000000
  0.40000000      -0.58995189E-01   0.36187213        0.0000000
  0.45000000      -0.57541914E-01   0.32986702        0.0000000
  0.50000000      -0.54535540E-01   0.29348363        0.0000000
  0.55000000      -0.54274253E-01   0.26068077        0.0000000
  0.60000000      -0.54629301E-01   0.22821409        0.0000000
  0.65000000      -0.53222918E-01   0.19119429        0.0000000
  0.70000000      -0.55126661E-01   0.16023501        0.0000000
  0.75000000      -0.55338107E-01   0.12964982        0.0000000
  0.80000000      -0.54479345E-01   0.96670021E-01    0.0000000
  0.85000000      -0.54927600E-01   0.68357750E-01    0.0000000
  0.90000000      -0.54039789E-01   0.46977728E-01    0.0000000
  0.95000000      -0.57882460E-01   0.27877696E-01    0.0000000
  1.0000000      -0.52849642E-01   0.23997530E-02    0.0000000
  1.0500000      -0.41771348E-01   0.22210384E-01    0.0000000
  1.1000000      -0.39621813E-01   0.18965145E-01    0.0000000
  1.1500000      -0.32429445E-01   0.35819558E-01    0.0000000
  1.2000000      -0.25627458E-01   0.38392428E-01    0.0000000
  1.2500000      -0.13393275E-01   0.42577826E-01    0.0000000
  1.3000000      -0.73213464E-02   0.44334563E-01    0.0000000
  1.3500000      -0.17606621E-03   0.37252988E-01    0.0000000
  1.4000000       0.14796578E-01   0.36213179E-01    0.0000000
  1.4500000       0.26450573E-01   0.25439388E-01    0.0000000
  1.5000000       0.50799074E-01   0.37873325E-01    0.0000000
  1.5500000       0.69574739E-01   0.30468159E-01    0.0000000
  1.6000000       0.63781359E-01   0.11742282E-01    0.0000000
  1.6500000       0.55595303E-01   0.61389228E-02    0.0000000
  1.7000000       0.39027975E-01   0.86014048E-02    0.0000000
  1.7500000       0.33095108E-01   0.11369147E-01    0.0000000
  1.8000000       0.20073594E-01   0.41587528E-02    0.0000000
  1.8500000       0.19513129E-01   0.47239251E-02    0.0000000
  1.9000000       0.12178704E-01   0.44773145E-03    0.0000000
  1.9500000      -0.18810425E-02   0.23295554E-02    0.0000000
  2.0000000      -0.44585704E-02   0.32674700E-02    0.0000000
  2.0500000      -0.15538502E-01   0.26347399E-02    0.0000000
  2.1000000      -0.17818462E-01   0.65774257E-02    0.0000000
  2.1500000      -0.19863387E-01   0.65076258E-02    0.0000000
  2.2000000      -0.12580906E-01   0.21187843E-02    0.0000000
  2.2500000      -0.21828486E-01   0.67546443E-02    0.0000000
  2.3000000      -0.18708663E-01   0.40339655E-02    0.0000000
  2.3500000      -0.12470030E-01   0.25019262E-02    0.0000000
  2.4000000      -0.10956717E-01   0.82568244E-03    0.0000000
  2.4500000      -0.51803261E-02   0.24647881E-02    0.0000000
  2.5000000      -0.62092200E-02   0.28072651E-02    0.0000000
  2.5500000      -0.29283926E-02   0.86251075E-02   0.15413321E-02
  2.6000000       0.24496874E-02   0.50282305E-02   0.61558254E-02
  2.6500000      -0.54369634E-02   0.88113066E-02   0.13815030E-01
  2.7000000      -0.86875855E-02   0.35908803E-03   0.24471725E-01
  2.7500000       0.43011395E-02   0.35073006E-02   0.38060207E-01
  2.8000000      -0.19972342E-03   0.54473309E-02   0.54496700E-01
  2.8500000       0.44327596E-03   0.89438188E-03   0.73679868E-01
  2.9000000      -0.48909489E-02   0.71512244E-02   0.95491438E-01
  2.9500000      -0.41183443E-02   0.44717492E-02   0.11979694
  3.0000000       0.44313402E-02   0.45299129E-02   0.14644651
  3.0500000       0.38120848E-02   0.15829791E-02   0.17527586
  3.1000000      -0.13595260E-02   0.23410195E-02   0.20610724
  3.1500000       0.30485475E-02   0.14911230E-02   0.23875057
  3.2000000       0.53162407E-02   0.57972104E-03   0.27300458
  3.2500000       0.58155201E-02   0.16041918E-02   0.30865809
  3.3000000      -0.16302408E-03   0.31193838E-03   0.34549129
  3.3500000       0.35450079E-02   0.63802768E-02   0.38327709
  3.4000000      -0.34137027E-02   0.28163363E-02   0.42178252
  3.4500000      -0.20137600E-02   0.18179756E-02   0.46077019
  3.5000000      -0.25719370E-02   0.26019722E-02   0.49999973
  3.5500000       0.19206664E-01   0.13170435E-01   0.53922926
  3.6000000       0.66322569E-02   0.35759229E-02   0.57821693
  3.6500000       0.12518284E-01   0.80853563E-03   0.61672237
  3.7000000       0.63287244E-02   0.19503196E-02   0.65450818
  3.7500000       0.87150074E-02   0.83857026E-03   0.69134140
  3.8000000       0.28183618E-02   0.22056104E-02   0.72699493
  3.8500000       0.64586900E-02   0.95677263E-02   0.76124897
  3.9000000      -0.20602716E-02   0.37801825E-02   0.79389231
  3.9500000      -0.10182254E-01   0.17624928E-02   0.82472372
  4.0000000      -0.12065898E-01   0.12240573E-02   0.85355310
  4.0500000      -0.22407299E-01   0.47512475E-02   0.88020271
  4.1000000      -0.27547100E-01   0.79866224E-02   0.90450824
  4.1500000      -0.19240070E-01   0.21175889E-02   0.92631985
  4.2000000      -0.17485243E-01   0.96091336E-04   0.94550305
  4.2500000      -0.92192198E-02   0.12646779E-02   0.96193958
  4.3000000      -0.36238524E-02   0.50552547E-03   0.97552811
  4.3500000      -0.20542226E-02   0.61672274E-02   0.98618484
  4.4000000       0.69399064E-02   0.35232868E-02   0.99384409
  4.4500000       0.16263556E-01   0.98038336E-02   0.99845862
  4.5000000       0.76241193E-02   0.14437075E-02    1.0000000
  4.5500000       0.11436101E-01   0.32082394E-02    1.0000000
  4.6000000       0.19455430E-01   0.16944456E-02    1.0000000
  4.6500000       0.13264692E-01   0.71906591E-03    1.0000000
  4.7000000       0.22910044E-01   0.79840902E-02    1.0000000
  4.7500000       0.16587748E-01   0.20020284E-02    1.0000000
  4.8000000       0.16400672E-01   0.46304165E-03    1.0000000
  4.8500000       0.71690389E-02   0.73331882E-02    1.0000000
  4.9000000       0.24978651E-02   0.52834899E-02    1.0000000
  4.9500000      -0.29682219E-02   0.41121716E-02    1.0000000
  5.0000000      -0.22668940E-02   0.36813298E-02    1.0000000
  5.0500000      -0.31079257E-02   0.56368109E-02    1.0000000
  5.1000000      -0.72899555E-02   0.18331554E-02    1.0000000
  5.1500000      -0.33401522E-02   0.39255471E-03    1.0000000
  5.2000000      -0.48328729E-02   0.23053241E-02    1.0000000
  5.2500000       0.77529133E-03   0.22501313E-02    1.0000000
  5.3000000       0.66952950E-03   0.13686121E-02    1.0000000
  5.3500000      -0.83512179E-02   0.25396659E-02    1.0000000
  5.4000000      -0.12042627E-01   0.80111561E-04    1.0000000
  5.4500000      -0.12633907E-01   0.15450634E-02    1.0000000
  5.5000000      -0.15360354E-01   0.16436250E-02    1.0000000
  5.5500000      -0.23097598E-01   0.45188827E-02    1.0000000
  5.6000000      -0.16288554E-01   0.10304026E-03    1.0000000
  5.6500000      -0.77579885E-02   0.79343882E-02    1.0000000
  5.7000000      -0.13039196E-01   0.23804904E-02    1.0000000
  5.7500000      -0.10809662E-01   0.66858463E-04    1.0000000
  5.8000000      -0.36571544E-02   0.22469542E-02    1.0000000
  5.8500000       0.47137443E-02   0.45434985E-02    1.0000000
  5.9000000       0.36914506E-02   0.24534620E-02    1.0000000
  5.9500000       0.11916561E-02   0.56281876E-03    1.0000000
  6.0000000       0.11661651E-01   0.19384257E-02    1.0000000
  6.0500000       0.91894097E-02   0.66557811E-02    1.0000000
  6.1000000       0.96744710E-02   0.64139318E-02    1.0000000
  6.1500000       0.19625713E-01   0.93167922E-03    1.0000000
  6.2000000       0.23811255E-01   0.23460896E-03    1.0000000
  6.2500000       0.15714414E-01   0.21902090E-02    1.0000000
  6.3000000       0.17713600E-01   0.20486351E-02    1.0000000
  6.3500000       0.19505371E-01   0.11841025E-02    1.0000000
  6.4000000       0.18396516E-01   0.26298510E-02    1.0000000
  6.4500000       0.13385424E-01   0.52309039E-02    1.0000000
  6.5000000       0.78473558E-02   0.53610186E-02    1.0000000
  6.5500000      -0.73703766E-04   0.37593688E-02    1.0000000
  6.6000000      -0.47818771E-03   0.11658039E-02    1.0000000
  6.6500000      -0.10929638E-01   0.55037731E-02    1.0000000
  6.7000000      -0.12008474E-01   0.15021566E-02    1.0000000
  6.7500000      -0.15986895E-01   0.64203241E-03    1.0000000
  6.8000000      -0.19345885E-01   0.29419667E-03    1.0000000
  6.8500000      -0.17680333E-01   0.20172137E-02    1.0000000
  6.9000000      -0.16933730E-01   0.40839783E-02    1.0000000
  6.9500000      -0.20299454E-01   0.73510447E-03    1.0000000
  7.0000000      -0.17416947E-01   0.86967794E-03    1.0000000
  7.0500000      -0.19993571E-01   0.25493392E-02    1.0000000
  7.1000000      -0.11768969E-01   0.26972470E-02    1.0000000
  7.1500000      -0.81507194E-02   0.16330060E-03    1.0000000
  7.2000000      -0.59938790E-02   0.13533340E-02    1.0000000
  7.2500000       0.72447483E-02   0.55086046E-02    1.0000000
  7.3000000       0.40165133E-02   0.99632444E-04    1.0000000
  7.3500000      -0.86601946E-03   0.50351173E-03    1.0000000
  7.4000000       0.57668799E-02   0.61688967E-03    1.0000000
  7.4500000       0.98386616E-02   0.26667233E-02    1.0000000
  7.5000000       0.18164588E-01   0.52004410E-02    1.0000000
  7.5500000       0.15515249E-01   0.31729700E-02    1.0000000
  7.6000000       0.70151658E-02   0.51112422E-02    1.0000000
  7.6500000       0.93480512E-02   0.38705414E-02    1.0000000
  7.7000000       0.12437298E-01   0.37526472E-02    1.0000000
  7.7500000       0.20288673E-01   0.13047211E-02    1.0000000
  7.8000000       0.17705072E-01   0.59278153E-02    1.0000000
  7.8500000       0.11197678E-01   0.17793299E-03    1.0000000
  7.9000000       0.50703348E-02   0.56464701E-02    1.0000000
  7.9500000      -0.11977251E-02   0.14747863E-02    1.0000000
  8.0000000       0.18975160E-02   0.42988959E-02    1.0000000
  8.0500000       0.46810638E-02   0.19497819E-02    1.0000000
  8.1000000       0.31440768E-03   0.29488124E-02    1.0000000
  8.1500000      -0.75523381E-02   0.80536877E-02    1.0000000
  8.2000000      -0.40627474E-02   0.40027578E-02    1.0000000
  8.2500000      -0.53003820E-02   0.51208274E-02    1.0000000
  8.3000000      -0.46862361E-02   0.16903069E-02    1.0000000
  8.3500000      -0.14855322E-01   0.12616218E-02    1.0000000
  8.4000000      -0.20747724E-01   0.93095233E-03    1.0000000
  8.4500000      -0.19205141E-01   0.21074655E-02    1.0000000
  8.5000000      -0.19236103E-01   0.83306890E-03    1.0000000
  8.5500000      -0.94281173E-02   0.26923490E-02    1.0000000
  8.6000000      -0.14405324E-01   0.51242562E-02    1.0000000
  8.6500000      -0.73398552E-02   0.20359723E-03    1.0000000
  8.7000000      -0.24887047E-02   0.57321878E-03    1.0000000
  8.7500000      -0.39737111E-02   0.24580280E-02    1.0000000
  8.8000000      -0.58636237E-03   0.48257318E-02    1.0000000
  8.8500000       0.68529767E-02   0.29976010E-02    1.0000000
  8.9000000       0.67277513E-02   0.53071130E-02    1.0000000
  8.9500000       0.10269676E-01   0.50565136E-02    1.0000000
  9.0000000       0.14889095E-01   0.15670410E-02    1.0000000
  9.0500000       0.74864751E-02   0.55092319E-02    1.0000000
  9.1000000       0.15824578E-01   0.59907456E-02    1.0000000
  9.1500000       0.14308804E-01   0.49943869E-02    1.0000000
  9.2000000       0.74336475E-02   0.34737929E-02    1.0000000
  9.2500000       0.10473078E-01   0.17194781E-03    1.0000000
  9.3000000       0.11782550E-01   0.44899798E-02    1.0000000
  9.3500000       0.43968310E-02   0.47524583E-02    1.0000000
  9.4000000      -0.26411815E-02   0.98145383E-03    1.0000000
  9.4500000       0.11818738E-02   0.19383567E-02    1.0000000
  9.5000000      -0.23932921E-02   0.35813962E-02    1.0000000
  9.5500000      -0.18396030E-02   0.30187553E-02    1.0000000
  9.6000000      -0.11385874E-02   0.22219180E-02    1.0000000
  9.6500000      -0.76689111E-02   0.58527445E-02    1.0000000
  9.7000000      -0.68406345E-02   0.19840269E-02    1.0000000
  9.7500000      -0.17145886E-02   0.23533195E-03    1.0000000
  9.8000000      -0.29854826E-02   0.37094458E-02    1.0000000
  9.8500000      -0.11188170E-01   0.21569047E-02    1.0000000
  9.9000000      -0.86026452E-02   0.29283612E-02    1.0000000
  9.9500000      -0.50092419E-02   0.15339322E-02    1.0000000
  10.000000      -0.11549504E-01   0.44976346E-02    1.0000000
  10.050000      -0.29809960E-02   0.51073637E-02    1.0000000
  10.100000      -0.41251225E-02   0.35723112E-03    1.0000000
  10.150000      -0.21541690E-02   0.13145338E-02    1.0000000
  10.200000       0.10234427E-02   0.23243860E-02    1.0000000
  10.250000       0.32200452E-03   0.49706012E-02    1.0000000
  10.300000       0.37035113E-02   0.26030076E-02    1.0000000
  10.350000       0.13431297E-01   0.69811035E-02    1.0000000
  10.400000       0.45987469E-02   0.21159083E-02    1.0000000
  10.450000       0.42961759E-02   0.24377467E-02    1.0000000
  10.500000       0.14890599E-02   0.55591278E-02    1.0000000
  10.550000       0.11609417E-01   0.40323119E-02   0.99845862
  10.600000       0.48906205E-02   0.34516687E-02   0.99384409
  10.650000       0.24495031E-02   0.10970380E-02   0.98618484
  10.700000      -0.24629090E-03   0.68661058E-03   0.97552811
  10.750000      -0.23867623E-02   0.23321440E-02   0.96193958
  10.800000      -0.21482873E-02   0.12490646E-02   0.94550305
  10.850000       0.18147880E-02   0.35246438E-03   0.92631985
  10.900000      -0.29268224E-02   0.42101656E-03   0.90450824
  10.950000      -0.45691667E-02   0.16863073E-02   0.88020271
  11.000000      -0.48500243E-02   0.84001309E-03   0.85355310
  11.050000      -0.12528536E-02   0.19367272E-02   0.82472372
  11.100000       0.46547738E-02   0.90731812E-02   0.79389231
  11.150000      -0.57665363E-02   0.41528790E-03   0.76124897
  11.200000      -0.96289738E-02   0.30237298E-02   0.72699493
  11.250000      -0.23788804E-02   0.57070095E-03   0.69134140
  11.300000      -0.45539028E-02   0.28953404E-02   0.65450818
  11.350000      -0.11879361E-02   0.10220776E-02   0.61672237
  11.400000       0.11364968E-02   0.17930050E-02   0.57821693
  11.450000      -0.32350791E-02   0.24663220E-02   0.53922926
  11.500000      -0.10552412E-04   0.14655655E-02   0.49999973
  11.550000       0.21897023E-02   0.20261201E-02   0.46077019
  11.600000       0.31216681E-03   0.60123197E-03   0.42178252
  11.650000      -0.40442721E-02   0.34045962E-02   0.38327709
  11.700000       0.40074324E-02   0.81138459E-03   0.34549129
  11.750000       0.50089391E-02   0.15171817E-02   0.30865809
  11.800000       0.33781429E-02   0.66809884E-03   0.27300458
  11.850000       0.22981348E-02   0.24754982E-02   0.23875057
  11.900000       0.64730406E-02   0.12737013E-02   0.20610724
  11.950000       0.25702733E-02   0.73300965E-03   0.17527586
  12.000000       0.47413240E-02   0.69678485E-03   0.14644651
  12.050000       0.42466287E-02   0.19446344E-02   0.11979694
  12.100000      -0.12887451E-02   0.27710640E-02   0.95491438E-01
  12.150000       0.30147942E-02   0.25683068E-02   0.73679868E-01
  12.200000       0.62156215E-02   0.96750208E-03   0.54496700E-01
  12.250000       0.20154652E-02   0.88775504E-03   0.38060207E-01
  12.300000      -0.27523525E-02   0.23117736E-02   0.24471725E-01
  12.350000      -0.66017710E-03   0.89452158E-03   0.13815030E-01
  12.400000       0.11939292E-02   0.32753388E-03   0.61558254E-02
  12.450000      -0.70961102E-03   0.49559362E-02   0.15413321E-02
  12.500000      -0.32271083E-02   0.11826982E-02   0.10693950E-25
  12.550000      -0.58660254E-02   0.20504836E-02    0.0000000
  12.600000      -0.18115982E-02   0.26954235E-02    0.0000000
  12.650000       0.35470435E-03   0.13613487E-02    0.0000000
  12.700000      -0.69014075E-02   0.36217905E-02    0.0000000
  12.750000      -0.37598839E-02   0.43543244E-02    0.0000000
  12.800000      -0.57504731E-02   0.85003720E-03    0.0000000
  12.850000      -0.52261942E-02   0.25957856E-02    0.0000000
  12.900000      -0.28624499E-02   0.19194758E-02    0.0000000
  12.950000      -0.30585977E-02   0.11548180E-03    0.0000000
  13.000000      -0.28132366E-02   0.23640241E-02    0.0000000
  13.050000       0.45310944E-02   0.67554648E-03    0.0000000
  13.100000       0.52311545E-02   0.23540435E-02    0.0000000
  13.150000      -0.33563279E-03   0.43833943E-03    0.0000000
  13.200000       0.38177224E-02   0.17149348E-02    0.0000000
  13.250000       0.56991809E-02   0.12277450E-02    0.0000000
  13.300000       0.35112624E-02   0.15990723E-02    0.0000000
  13.350000       0.61280231E-03   0.26978678E-03    0.0000000
  13.400000       0.16433163E-03   0.21298887E-03    0.0000000
  13.450000       0.65574005E-04   0.16420864E-02    0.0000000
  13.500000      -0.23805301E-03   0.99474541E-03    0.0000000
  13.550000      -0.95494204E-04   0.84484526E-03    0.0000000
  13.600000       0.30735665E-02   0.50633425E-03    0.0000000
  13.650000       0.41623340E-02   0.21759818E-02    0.0000000
  13.700000       0.54571526E-03   0.80464878E-03    0.0000000
  13.750000       0.66013161E-03   0.50539573E-03    0.0000000
  13.800000      -0.26293691E-03   0.10999690E-02    0.0000000
  13.850000      -0.45293757E-02   0.18504335E-02    0.0000000
  13.900000      -0.37175526E-02   0.30824820E-02    0.0000000
  13.950000       0.36014095E-02   0.23625263E-02    0.0000000
  14.000000      -0.29395193E-02   0.37206092E-02    0.0000000
  14.050000      -0.63526056E-02   0.10972646E-02    0.0000000
  14.100000       0.22094958E-03   0.44259232E-04    0.0000000
  14.150000       0.11522007E-02   0.26571095E-03    0.0000000
  14.200000       0.61015031E-03   0.17179962E-02    0.0000000
  14.250000      -0.24972840E-02   0.21745604E-02    0.0000000
  14.300000      -0.79205952E-03   0.21037629E-02    0.0000000
  14.350000      -0.28609379E-02   0.30129434E-02    0.0000000
  14.400000      -0.20283434E-02   0.26089089E-02    0.0000000
  14.450000      -0.10997537E-02   0.68914051E-03    0.0000000
  14.500000       0.17997619E-02   0.12162591E-02    0.0000000
  14.550000       0.95374617E-03   0.91829436E-03    0.0000000
  14.600000      -0.41731273E-03   0.11765915E-02    0.0000000
  14.650000       0.55778094E-03   0.18724385E-02    0.0000000
  14.700000       0.11358425E-02   0.57698711E-03    0.0000000
  14.750000       0.53297839E-02   0.44741639E-02    0.0000000
  14.800000       0.66398573E-02   0.77602102E-02    0.0000000
  14.850000       0.39537222E-02   0.62979388E-02    0.0000000
  14.900000       0.19920513E-02   0.14779138E-02    0.0000000
  14.950000       0.24132021E-02   0.83215162E-05    0.0000000
  15.000000       0.31055329E-02   0.31905446E-02    0.0000000
  15.050000      -0.16164047E-02   0.12309911E-02    0.0000000
  15.100000       0.30606024E-02   0.20503722E-02    0.0000000
  15.150000       0.25358288E-02   0.14887965E-02    0.0000000
  15.200000      -0.11530124E-02   0.12797560E-02    0.0000000
  15.250000      -0.36376128E-02   0.14813846E-02    0.0000000
  15.300000      -0.52332087E-02   0.10110901E-02    0.0000000
  15.350000      -0.67576902E-02   0.37858703E-02    0.0000000
  15.400000      -0.71961914E-02   0.76638148E-02    0.0000000
  15.450000       0.10196310E-03   0.20080738E-02    0.0000000
  15.500000      -0.41783353E-03   0.11200422E-03    0.0000000
  15.550000      -0.51487372E-02   0.48286223E-02    0.0000000
  15.600000      -0.27636149E-02   0.35628794E-02    0.0000000
  15.650000      -0.29427461E-02   0.30500861E-02    0.0000000
  15.700000       0.11518021E-02   0.38221701E-03    0.0000000
  15.750000       0.34615283E-02   0.12099756E-02    0.0000000
  15.800000       0.14720768E-02   0.61033698E-03    0.0000000
  15.850000       0.70997971E-03   0.27083702E-02    0.0000000
  15.900000       0.12363810E-02   0.98774280E-03    0.0000000
  15.950000       0.18890661E-02   0.31772784E-02    0.0000000
  16.000000       0.27426919E-02   0.16839888E-02    0.0000000
  16.050000       0.31729284E-02   0.20979718E-02    0.0000000
  16.100000       0.18513303E-02   0.25205260E-04    0.0000000
  16.150000       0.20244360E-02   0.27471822E-02    0.0000000
  16.200000       0.54594333E-04   0.54222442E-03    0.0000000
  16.250000      -0.35089448E-03   0.22621124E-02    0.0000000
  16.300000       0.78459822E-04   0.20061893E-02    0.0000000
  16.350000       0.12091040E-02   0.11663533E-02    0.0000000
  16.400000       0.10540222E-02   0.19803086E-02    0.0000000
  16.450000      -0.33833312E-02   0.11443302E-02    0.0000000
  16.500000      -0.14965220E-02   0.29920563E-02    0.0000000
